Energy Monitor Ho_a Ho_g2 Ho_g1 Ho_b1 bragg Ho_b2 fluotot
7.901000000000000000e+03 7.627304829622476827e+05 3.947566926486216602e-07 1.825206520602841739e-08 1.920734214932766123e-08 3.483876568511152121e-06 7.435810727412058618e+00 6.236385480298913873e-07 4.589182180487050462e-03
7.902000000000000000e+03 7.623051203221004689e+05 4.305322945087540224e-07 1.923138994915456154e-08 5.671169698709463040e-08 3.556404295765332350e-06 7.344820066678950710e+00 6.122200061678753466e-07 4.590905219377019314e-03
7.903000000000000000e+03 7.618221717691583326e+05 5.088579887619058968e-07 5.676671177310114409e-08 5.574550317486249286e-08 3.361064927605914253e-06 7.307739430832153715e+00 2.871553315638076430e-09 4.539424738495168032e-03
7.904000000000000000e+03 7.613473544899941189e+05 4.268588529272552955e-07 5.576819628259103923e-08 1.824073947430365316e-08 3.873591510078439881e-06 7.312865135684426754e+00 -1.505813547091928020e-06 4.432889755109733175e-03
7.905000000000000000e+03 7.608440868011061102e+05 3.401422669023495338e-07 1.823321691590626284e-08 5.795720413363501128e-08 3.789135089076561171e-06 7.219354133781140881e+00 -1.226748633495525459e-06 4.481858880569428161e-03
7.906000000000000000e+03 7.602507470985059626e+05 2.779606944312702248e-07 -5.138741735135975522e-25 5.470042869872247856e-08 3.670455953279496775e-06 7.209218724125273425e+00 -3.636681603926213927e-07 4.571460067429271648e-03
7.907000000000000000e+03 7.597823059458710486e+05 3.054125578882811135e-07 1.937419013594983987e-08 -3.210589021186739086e-19 3.762620205996827450e-06 7.227093080061426811e+00 -1.646006880272549968e-06 4.537779741756071093e-03
7.908000000000000000e+03 7.591809212209221441e+05 4.127952020119406794e-07 3.763455495956950237e-08 3.881945750254714419e-08 3.395077800655897684e-06 7.221665295854617916e+00 1.562782281477981153e-07 4.552964989840677795e-03
7.909000000000000000e+03 7.586100531991268508e+05 3.571937490320427054e-07 1.822793692945615728e-08 5.589080494048074317e-08 3.362362008224362959e-06 7.202559618060337954e+00 9.737715356218770580e-07 4.587679588013487617e-03
7.910000000000000000e+03 7.581104333611887414e+05 3.002564405459477475e-07 -1.401310562677745116e-23 1.822129465752841259e-08 3.545124804605011421e-06 7.160879869849734014e+00 -2.450141519865799425e-08 4.562050456202964947e-03
7.911000000000000000e+03 7.574570062269634800e+05 5.175377983899157555e-07 -2.068111346406420938e-23 1.949971962981970477e-08 3.713788134759909962e-06 7.136210733932798256e+00 5.078233267458117145e-07 4.614997897393138988e-03
7.912000000000000000e+03 7.568214357055138098e+05 7.355071027211950020e-07 -1.046394949714319145e-23 7.681292011960859800e-08 3.729850437093698104e-06 7.080480273887413745e+00 4.654684994018289557e-08 4.608280221660179983e-03
7.913000000000000000e+03 7.563294232278498821e+05 6.395258693267222137e-07 -4.798403313326503894e-24 5.465948888246241969e-08 3.556575633364595574e-06 7.049283468259023522e+00 -1.372603650671483782e-07 4.655249204792466164e-03
7.914000000000000000e+03 7.558413080890702549e+05 4.103167409427936919e-07 -6.186506807515447117e-24 -5.465064050149807085e-19 3.175191253033806393e-06 7.078363880916598738e+00 1.447997394096404650e-07 4.666929044183084491e-03
7.915000000000000000e+03 7.554855759781635134e+05 3.039439829154436155e-07 3.921357829756329717e-08 -5.894442703001076020e-19 3.017913620930344360e-06 7.077906670359613628e+00 6.491799970129556164e-07 4.623755207582628396e-03
7.916000000000000000e+03 7.551101683215351077e+05 2.423496439975114985e-07 3.639995988285850871e-08 5.891236839285040337e-08 3.167886482467467395e-06 7.039242616832292576e+00 9.569403581977453138e-07 4.636627682751532330e-03
7.917000000000000000e+03 7.544342391012663720e+05 3.088707849308366640e-07 -1.205884536201823335e-23 5.459448795026342549e-08 3.531692193117091667e-06 7.020627149670821687e+00 -1.126973374257108747e-06 4.583809702798335474e-03
7.918000000000000000e+03 7.498310152982764412e+05 4.771633225372042822e-07 3.980794057077334564e-08 -7.392042913673048741e-19 3.535811244430230283e-06 7.034542412224052299e+00 -1.983129929996684774e-06 4.564268985905385774e-03
7.919000000000000000e+03 7.495251052765733330e+05 4.166173167050424708e-07 3.676780078293532165e-08 3.947258035830582630e-08 3.409573190942470990e-06 7.043772204215617450e+00 -5.646698515977041161e-07 4.616744117095842453e-03
7.920000000000000000e+03 7.525890425439717947e+05 4.800358598449510620e-07 -1.420597467212690508e-23 5.616292327954506265e-08 3.685343837452590655e-06 7.045856121044388409e+00 -1.529248596275675980e-06 4.558111325778673242e-03
7.921000000000000000e+03 7.519955315397109371e+05 5.089123904925864615e-07 3.959763095124236135e-08 1.819533876537081880e-08 3.570290808764041555e-06 6.946783715959966798e+00 -1.609759016120992529e-06 4.493171289718551030e-03
7.922000000000000000e+03 7.472335705644926056e+05 3.604874068435152535e-07 5.643327677923429450e-08 -9.984204492390017271e-19 3.671959484565287072e-06 6.903304643646534622e+00 -1.274418470168029481e-07 4.545483310615791236e-03
7.923000000000000000e+03 7.430616140070940601e+05 3.477327199835734084e-07 1.838841704527416534e-08 -1.076106189227763656e-18 3.722268873429703182e-06 6.947387311500257567e+00 1.141630975098630451e-06 4.602639840734098174e-03
7.924000000000000000e+03 7.464496935032460606e+05 5.021736578207023794e-07 -1.375217072867912591e-23 1.990029660144012287e-08 3.203336307773391890e-06 6.941800592053474439e+00 1.117806664725797489e-06 4.584732103066974443e-03
7.925000000000000000e+03 7.493504865513099357e+05 5.701916389872448638e-07 -1.329943906378453952e-23 1.819798085295531110e-08 3.169713157950612043e-06 6.922734083897227997e+00 -1.079170707416010615e-06 4.534988685680010380e-03
7.926000000000000000e+03 7.447429290206973674e+05 5.572850549699053872e-07 2.017024039977291426e-08 -1.346654883543032732e-18 3.156137806079164413e-06 6.912243042347129496e+00 -1.557218581005840773e-06 4.527768948239942887e-03
7.927000000000000000e+03 7.405694561392822070e+05 4.575245128625713355e-07 5.877714755976957946e-08 4.039359052559407435e-08 2.716987657004950487e-06 6.862418299464668081e+00 6.966924754214040314e-07 4.574315304122885534e-03
7.928000000000000000e+03 7.440148236191890901e+05 4.257241953647184643e-07 3.675430855699167234e-08 9.683041783041067154e-08 2.919676390545640291e-06 6.788948751190188702e+00 6.365628205553678351e-07 4.577157264844515343e-03
7.929000000000000000e+03 7.429458013773062266e+05 4.999560192012444368e-07 2.026727941310094129e-08 5.457262772853122997e-08 3.517911896272905309e-06 6.772622612481956850e+00 -5.157373673633632797e-07 4.575683166879450023e-03
7.930000000000000000e+03 7.387570390849282267e+05 5.230700367014122701e-07 1.838000959562189801e-08 -1.813771960797823984e-18 3.491400585243448751e-06 6.773552984949501976e+00 1.169828508363197644e-06 4.664431827491312584e-03
7.931000000000000000e+03 7.382205566284692613e+05 5.011864297363598008e-07 8.131431416616570598e-08 2.032857853958790382e-08 3.253593322205639469e-06 6.752548618159977423e+00 2.614530249836944841e-06 4.711056421271549687e-03
7.932000000000000000e+03 7.378433869855689118e+05 4.239775691769867780e-07 7.349732415505508226e-08 3.872289070784206789e-08 3.383331706786537745e-06 6.727644488290317248e+00 1.170693676768338614e-07 4.618579133272395117e-03
7.933000000000000000e+03 7.374352435711541912e+05 5.505035386718893861e-07 -8.075112949045781257e-24 5.912685995334455742e-08 3.277629418729758226e-06 6.719550509096549717e+00 5.936133993427549803e-07 4.642075097255113532e-03
7.934000000000000000e+03 7.369064388104501413e+05 6.162572267769009318e-07 4.082054015908606638e-08 3.672371618237143517e-08 2.785369304383928354e-06 6.692776905583149194e+00 2.103341426429401206e-06 4.719513494369885140e-03
7.935000000000000000e+03 7.361818915333234472e+05 6.047063580337927932e-07 7.762060426202971852e-08 -2.626521398098582250e-18 2.862200687752217718e-06 6.685710928136380460e+00 4.843819847035376755e-07 4.706645968522066986e-03
7.936000000000000000e+03 7.357426804142203182e+05 5.987634026434509097e-07 3.673004268645830301e-08 -2.827650059111344944e-18 3.086088670952409102e-06 6.701576303072783958e+00 -3.931723668402169783e-08 4.668766081921457874e-03
7.937000000000000000e+03 7.393638726361880545e+05 5.207203347913386391e-07 -1.221811170154897472e-23 -3.043920521227277873e-18 3.181883281213578297e-06 6.619595842827365573e+00 -5.066194179968609747e-07 4.615790487113803110e-03
7.938000000000000000e+03 7.382308296001892304e+05 5.647708069826976150e-07 4.108121049624514099e-08 4.108121049296871829e-08 2.992538774224407384e-06 6.562805797093063553e+00 -2.145392073055989485e-07 4.616638750895139635e-03
7.939000000000000000e+03 7.339732696362076094e+05 7.257145077236892755e-07 5.727790587092206688e-08 3.670165503998701516e-08 2.726127696702325124e-06 6.568792180630523170e+00 -2.441535129658089698e-08 4.632964602513992523e-03
7.940000000000000000e+03 7.334689218721385114e+05 6.326147637265672509e-07 1.835207776703058866e-08 2.060176088111529423e-08 2.457132249349125950e-06 6.544728035162780344e+00 4.441426757710195432e-07 4.660022895034022367e-03
7.941000000000000000e+03 7.329960806924353819e+05 4.677476572533095047e-07 -4.704993421311420786e-24 5.961369764754627861e-08 2.478614117563217343e-06 6.521687510966794221e+00 5.901263731325088048e-07 4.701493531708393625e-03
7.942000000000000000e+03 7.284125865288150962e+05 4.707054314500592109e-07 2.088244038022417230e-08 5.756846485705805739e-08 2.755348405198937808e-06 6.497634515441243153e+00 -6.033270513036853326e-07 4.631334629968976262e-03
7.943000000000000000e+03 7.284118270621603588e+05 7.397108756820882580e-07 1.853231032971760974e-08 1.853231032498971006e-08 2.683722352028194347e-06 6.468431293719391739e+00 1.272169642059198353e-06 4.668122762413119860e-03
7.944000000000000000e+03 7.314011220256006345e+05 8.314864084523574519e-07 4.146085684402957050e-08 -5.086379030124717874e-18 3.096521127935184091e-06 6.451746968488039968e+00 2.226331858060204052e-06 4.768036879614123529e-03
7.945000000000000000e+03 7.308579600814944133e+05 5.583763341996967430e-07 5.742919056458609724e-08 -5.471529889515208964e-18 3.282063634252521588e-06 6.441159474176416211e+00 -3.490592001037144066e-07 4.664480850706190750e-03
7.946000000000000000e+03 7.303027167933054734e+05 5.551127020969289515e-07 3.912272952513787038e-08 -5.885328775624263733e-18 2.856955650947837257e-06 6.402303609742117985e+00 -9.902849479048730117e-07 4.680986321504577996e-03
7.947000000000000000e+03 7.336550265332382405e+05 6.414482232415314739e-07 3.894482556007382452e-08 2.061381127339371531e-08 2.714314578892082548e-06 6.319982504418951486e+00 1.141625795591912426e-06 4.760315967322188702e-03
7.948000000000000000e+03 7.327486466989993351e+05 7.489985555863955056e-07 5.984437251003055524e-08 1.814209158840452329e-08 2.795426979104371067e-06 6.313726771125984349e+00 1.784712179112808339e-06 4.749128543058161837e-03
7.949000000000000000e+03 7.326731753595876507e+05 8.579331914124625761e-07 3.664078683173522943e-08 4.135313965298655426e-08 2.613485607925261136e-06 6.276890181224977994e+00 -3.404543473308334409e-07 4.767070540926561344e-03
7.950000000000000000e+03 7.315993998096343130e+05 7.755282776692820312e-07 2.091777298781367035e-08 3.627348761836850491e-08 3.114744037027504414e-06 6.209076434951753320e+00 -2.023119125428249246e-06 4.730445593859574152e-03
7.951000000000000000e+03 7.315478920674013207e+05 8.067217744427991157e-07 1.831774617161291911e-08 -8.462660053657451261e-18 3.145760817260782888e-06 6.209158356090213715e+00 -9.958711426540826501e-07 4.704918018797936072e-03
7.952000000000000000e+03 7.385109562788417097e+05 7.664958805463234114e-07 6.167290809912455629e-08 -9.097856439273016430e-18 2.598552441835515575e-06 6.183301339790488349e+00 -9.896552848572839795e-07 4.661421076517934144e-03
7.953000000000000000e+03 7.414182019132232526e+05 6.963028360482806915e-07 5.382726431123470692e-08 -9.779873685722528723e-18 2.397168982806743432e-06 6.114499016699324940e+00 -6.701464093928793438e-07 4.671979300674175377e-03
7.954000000000000000e+03 7.488377098393854685e+05 7.654286729948882053e-07 2.021393507956426710e-08 2.021393506905217132e-08 2.263655517376615755e-06 6.002830256300096146e+00 5.565946307864478535e-07 4.784477023992810864e-03
7.955000000000000000e+03 7.592341914286278188e+05 8.103347924570773976e-07 1.758367743045110930e-08 3.763265771086223997e-08 2.166715267923321763e-06 5.920545856569312981e+00 -2.271902694935529242e-07 4.751176022388756831e-03
7.956000000000000000e+03 7.620744756368988892e+05 8.047358597044898540e-07 -1.001845898083180802e-23 1.741111102836244678e-08 2.413844942120423787e-06 5.817066887219988658e+00 -9.496241977612107026e-07 4.679239992751379335e-03
7.957000000000000000e+03 7.615332004682667321e+05 1.069408282775535591e-06 2.010885521373174256e-08 -1.304751178732542919e-17 2.704710736884571860e-06 5.720099127121422100e+00 1.181580131485879773e-06 4.727797396172757523e-03
7.958000000000000000e+03 7.650427817363747163e+05 1.087780999903786048e-06 1.740491860434680421e-08 -1.401944505249358018e-17 2.406781552023595348e-06 5.698113755962310734e+00 2.229387170989589477e-06 4.750425472576791895e-03
7.959000000000000000e+03 7.679226430102330633e+05 1.072716767715640414e-06 -2.531105639709267395e-23 1.997439142735615963e-08 2.180249490909625778e-06 5.655176876846502054e+00 1.428468356507245837e-06 4.776003890860943193e-03
7.960000000000000000e+03 7.672590204785255482e+05 1.088812619333081510e-06 4.001480486443960836e-08 1.723091380489011267e-08 2.319548452020933133e-06 5.592017991795157350e+00 1.030852786941386691e-06 4.759921699748183299e-03
7.961000000000000000e+03 7.707630833449166967e+05 9.439755457421008107e-07 3.446119838394029872e-08 -1.738237587013523431e-17 2.313916417163080666e-06 5.589659905470226953e+00 1.056761799115767390e-06 4.845704191081622036e-03
7.962000000000000000e+03 7.698014227824326372e+05 9.479663652257314552e-07 2.005905751675714855e-08 4.011811501484367924e-08 2.403420798763586220e-06 5.604722070931298816e+00 1.551868076888842223e-06 4.879117359792671874e-03
7.963000000000000000e+03 7.658067923892628169e+05 9.499407890814121994e-07 1.721748692687385000e-08 7.461786415231049651e-08 2.350862121071814351e-06 5.554991828147269217e+00 3.327172719111695188e-07 4.741498869219544672e-03
7.964000000000000000e+03 7.651986965334304841e+05 9.737086393713951365e-07 4.024414434262184848e-08 7.467715958076694451e-08 2.351441386816786290e-06 5.531379843919189909e+00 1.160454186940815359e-06 4.854889674073425802e-03
7.965000000000000000e+03 7.647227368745827116e+05 9.684733551164786075e-07 3.442794754432679960e-08 5.457579005192467910e-08 2.542266150207955506e-06 5.557476755483647501e+00 5.910873000433921551e-07 4.913460975663871445e-03
7.966000000000000000e+03 7.681347919516983675e+05 9.698922776186555660e-07 -3.102898909748553267e-24 3.719654720940502379e-08 2.371225737122544842e-06 5.530198670802072947e+00 1.995566133187754206e-08 4.821345362960553424e-03
7.967000000000000000e+03 7.670120232013944769e+05 1.086615256820071645e-06 -8.978182088154301487e-24 5.745914857964833567e-08 2.579793024101453324e-06 5.481467462800618584e+00 -8.616163897784588133e-08 4.801932007789907683e-03
7.968000000000000000e+03 7.630803235952823889e+05 1.201191885391038617e-06 -1.244170932861113152e-23 3.440192540452230095e-08 2.438659210008625860e-06 5.439173598314328117e+00 4.211118870048835878e-08 4.859189266843569679e-03
7.969000000000000000e+03 7.625362945748061175e+05 1.155401809144648115e-06 2.026834815967481120e-08 -3.072093747158739395e-17 2.364121704402781435e-06 5.441321903868077570e+00 7.561999548863924510e-07 4.923796349321767941e-03
7.970000000000000000e+03 7.620176856082486920e+05 1.209136662044574263e-06 5.779405798413629698e-08 -3.297447157516196189e-17 2.542660841451412192e-06 5.390011362972611408e+00 3.556052038774111574e-07 4.900767890145695319e-03
7.971000000000000000e+03 7.654652608174657216e+05 1.125217607905440807e-06 3.438518815542896448e-08 2.013372362558802300e-08 2.627330858664109139e-06 5.326568521530100853e+00 -4.529104105717381358e-07 4.797993536657125385e-03
7.972000000000000000e+03 7.642409839624504093e+05 1.358939289627335609e-06 4.072557300860642689e-08 3.738639788685023785e-08 2.584643057894599790e-06 5.330597432872313135e+00 -1.170305870960894030e-06 4.737486855755889716e-03
7.973000000000000000e+03 7.602518192412253702e+05 1.609597129658394556e-06 3.437704676468268904e-08 3.758153742580693007e-08 2.216466721626043492e-06 5.356927051961410946e+00 -2.372552105296893107e-07 4.833211192940780991e-03
7.974000000000000000e+03 7.596969067649261560e+05 1.480697394224594744e-06 -8.671997436280966454e-24 5.803270415617082535e-08 2.417395086435828623e-06 5.377375193005718756e+00 -1.247676773990276442e-06 4.868053308033504743e-03
7.975000000000000000e+03 7.592156231100031873e+05 1.634551918610263156e-06 -3.042406777701258627e-24 9.571610210220808524e-08 2.501069434892845095e-06 5.362160808519506716e+00 -9.423149506509305081e-07 4.896322700666117834e-03
7.976000000000000000e+03 7.587796163312742719e+05 1.786935384970175255e-06 2.047834129035658390e-08 7.200667526023924270e-08 2.196692600119587414e-06 5.368626463789104797e+00 2.974794347946733930e-07 4.859513701609002000e-03
7.977000000000000000e+03 7.582085309837970417e+05 1.832628542155052582e-06 1.717078579537772788e-08 3.768281793683415468e-08 2.003326122917773374e-06 5.388424637321509891e+00 8.622213926686732935e-08 4.898395766515619039e-03
7.978000000000000000e+03 7.576458926773275016e+05 1.495270025474401667e-06 -2.834132379968138815e-23 1.717027794907883776e-08 2.180539971147585714e-06 5.405771892359602759e+00 -6.210485209400437266e-07 4.905755253678115331e-03
7.979000000000000000e+03 7.571526229239943204e+05 1.540056272226039070e-06 4.113998984988160137e-08 2.056999486283304951e-08 2.266448315288726478e-06 5.385966773088946447e+00 2.265644996291783231e-07 4.912494149686755067e-03
7.980000000000000000e+03 7.525930225448606070e+05 1.964305275804387119e-06 5.512628113080996521e-08 1.716125256490950459e-08 2.113605127570008324e-06 5.386582983637580924e+00 4.421087217242986662e-07 4.912643933817531505e-03
7.981000000000000000e+03 7.526848086252352223e+05 1.926049186567333540e-06 1.732725964249673181e-08 4.126571517326641159e-08 2.231438564823613817e-06 5.358526048738510461e+00 -1.145165806328728732e-06 4.847298277580341409e-03
7.982000000000000000e+03 7.553718356459303759e+05 1.732895211667810786e-06 2.066817908823284230e-08 5.498048450271854289e-08 2.329048006175035474e-06 5.322704127983620026e+00 -2.409265801388104873e-06 4.872308041668678598e-03
7.983000000000000000e+03 7.548710864540587645e+05 1.686066957760194847e-06 1.715676618884912653e-08 3.784941600565365101e-08 2.156854923811076939e-06 5.340127735538509057e+00 -2.448923466549074882e-06 4.877723128661178541e-03
7.984000000000000000e+03 7.545383722243924858e+05 1.807563638538814899e-06 4.143554620760519668e-08 5.858387908289245889e-08 2.028866113246069388e-06 5.375009710750162206e+00 -2.346253412803558847e-06 4.841672401312091187e-03
7.985000000000000000e+03 7.540403058922922937e+05 1.977558943592761450e-06 3.428083030583127744e-08 7.578224450581535442e-08 2.109154575034006820e-06 5.336155723649216753e+00 -5.516700077852955628e-07 4.929607360581919270e-03
7.986000000000000000e+03 7.534376036833511898e+05 2.255582418359293180e-06 1.784648110958091157e-24 5.506035441490455570e-08 2.039890552974373102e-06 5.281285915550556709e+00 1.030268550603719512e-06 5.019187609072855993e-03
7.987000000000000000e+03 7.529848487396918936e+05 2.407622919850800824e-06 4.161556116100389282e-08 1.713644900535484923e-08 1.984538005880616451e-06 5.233465331663178510e+00 -1.463507685878658696e-06 4.943895777430673891e-03
7.988000000000000000e+03 7.484741312408762751e+05 2.404959633718225337e-06 3.425711014062743635e-08 2.104540725350981581e-08 2.237072234187331088e-06 5.199039527135725258e+00 -2.675885445200696524e-06 4.967854060621414852e-03
