Energy Monitor Ho_a Ho_g2 Ho_g1 Ho_b1 bragg Ho_b2 fluotot
7.900000000000000000e+03 7.629960000000000000e+05 3.370173069621034893e-07 3.744636744023369897e-08 -1.948529296672491784e-19 2.988416081045365648e-06 7.407656423959360303e+00 1.445114882641686249e-07 4.597664994311869389e-03
7.901000000000000000e+03 7.624780000000000000e+05 4.496616857891543808e-07 -1.122448252499243029e-23 3.747180714888580777e-08 3.955015191519845276e-06 7.462582952636958922e+00 1.079245541715365597e-06 4.581115783012840517e-03
7.902000000000000000e+03 7.621410000000000000e+05 4.123721388636935618e-07 3.748837626033576692e-08 7.497675252044439666e-08 3.177989959281154377e-06 7.233023914524329356e+00 1.688574186479112728e-07 4.600198650905760502e-03
7.903000000000000000e+03 7.615200000000000000e+05 6.003031530923115543e-07 7.503789413653894429e-08 3.751894706802422964e-08 3.534575557204997391e-06 7.378551603539424519e+00 -1.544427549259014916e-07 4.481825822040048923e-03
7.904000000000000000e+03 7.611840000000000000e+05 2.627485601378904633e-07 3.753550859112716934e-08 -2.647897354388446127e-19 4.194363119369611049e-06 7.250713623863488166e+00 -2.784459522533691425e-06 4.386587211502064945e-03
7.905000000000000000e+03 7.605230000000000000e+05 4.132494537123982769e-07 -3.559547087030340488e-24 1.127043964667319309e-07 3.406350977165970656e-06 7.189731517220141477e+00 2.446870390139163891e-07 4.571853842684504496e-03
7.906000000000000000e+03 7.599940000000000000e+05 1.503771270374690926e-07 2.358336477880426598e-24 -3.084578784011184621e-19 3.919519180690724059e-06 7.227596063001827886e+00 -9.373752961167963966e-07 4.571088719121541022e-03
7.907000000000000000e+03 7.595830000000000000e+05 4.513754821489460107e-07 3.761462351241214991e-08 -3.329225274873956531e-19 3.614902790473541035e-06 7.226619531141472486e+00 -2.313170106634490273e-06 4.506419969904470330e-03
7.908000000000000000e+03 7.588030000000000000e+05 3.765328889241156369e-07 3.765328889241153193e-08 7.530657778446382925e-08 3.188460259855581195e-06 7.217008719218971358e+00 2.477358022075761771e-06 4.596713507985492747e-03
7.909000000000000000e+03 7.584290000000000000e+05 3.390467099001450713e-07 -3.705627700281236200e-24 3.767185665518400996e-08 3.525544127510197635e-06 7.189001186526681408e+00 -4.371310670867045722e-07 4.579202535768076704e-03
7.910000000000000000e+03 7.578120000000000000e+05 2.639176999044617955e-07 -2.366915528239186953e-23 -4.183011608814507004e-19 3.563467991140686552e-06 7.134535808562361581e+00 3.620502161919572854e-07 4.545982380854287838e-03
7.911000000000000000e+03 7.571250000000000000e+05 7.547347814806952354e-07 -1.788656165650287735e-23 3.773673907358347453e-08 3.854374329533813130e-06 7.137777199868038380e+00 6.441569306108699440e-07 4.679544328875603725e-03
7.912000000000000000e+03 7.565380000000000000e+05 7.175543632403697004e-07 -3.533512181700258810e-24 1.132980573532557737e-07 3.613583412452924165e-06 7.026982563734853748e+00 -5.114372012596948391e-07 4.541741459120268026e-03
7.913000000000000000e+03 7.561350000000000000e+05 5.667922111414344200e-07 -5.977461816123186206e-24 -5.251299288148600508e-19 3.503436272214019034e-06 7.070071084237858905e+00 2.115256839702666053e-07 4.761054573588136864e-03
7.914000000000000000e+03 7.555680000000000000e+05 2.647015225631577926e-07 -6.381042935345006605e-24 -5.663992370743196516e-19 2.869728230048305806e-06 7.086081112236112922e+00 8.270493965317705833e-08 4.579336340342564718e-03
7.915000000000000000e+03 7.554090000000000000e+05 3.404021624614707082e-07 7.564492499143793221e-08 -6.108542418321550394e-19 3.155585151674743417e-06 7.070312211017702353e+00 1.175463241339806718e-06 4.665022524222092390e-03
7.916000000000000000e+03 7.548330000000000000e+05 1.514052966493439938e-07 -1.514897357174290235e-23 1.135539724863492485e-07 3.179296046627407095e-06 7.010425366548170167e+00 7.542589656203642140e-07 4.610291282972633908e-03
7.917000000000000000e+03 7.540650000000000000e+05 4.546784996746207147e-07 -9.197491185668144789e-24 -7.103325168921894189e-19 3.857999102427426882e-06 7.030073655693565904e+00 -2.868930874743105971e-06 4.559288655487218206e-03
7.918000000000000000e+03 7.459170000000000000e+05 4.979489292087075035e-07 7.660752757057035156e-08 -7.658941768876723061e-19 3.237971669193551471e-06 7.038673457245891107e+00 -1.164270464691141216e-06 4.568872944308742176e-03
7.919000000000000000e+03 7.528550000000000000e+05 3.415569494030817437e-07 -1.766398281249023586e-23 7.590154431097024032e-08 3.567943016100786697e-06 7.048477801566341405e+00 -1.130270605824841524e-08 4.660924082326625001e-03
7.920000000000000000e+03 7.523440000000000000e+05 6.076247795461346659e-07 -1.101990452224610153e-23 3.797654872074327763e-08 3.793512250393680528e-06 7.043440609653300655e+00 -2.927823120581982954e-06 4.463383771253606573e-03
7.921000000000000000e+03 7.516750000000000000e+05 4.181138314906232976e-07 7.602069663465877055e-08 -9.595006287488330957e-19 3.364965160862669818e-06 6.857875862051176163e+00 -3.973648829757659481e-07 4.520570725380006726e-03
7.922000000000000000e+03 7.431550000000000000e+05 3.075689843591559599e-07 3.844612304489449499e-08 -1.034160572217766551e-18 3.953872780791457739e-06 6.945021954275028442e+00 1.204288363130910514e-07 4.568360570809497367e-03
7.923000000000000000e+03 7.429760000000000000e+05 3.845538559984248338e-07 -1.009632144503320881e-23 -1.114560910760513769e-18 3.509940043903354860e-06 6.949555813477471311e+00 2.077844259702059414e-06 4.634066241709014836e-03
7.924000000000000000e+03 7.496290000000000000e+05 6.098254698562317551e-07 -1.709819575011164663e-23 3.811409186481338535e-08 2.922716486451755566e-06 6.934702606628439625e+00 2.391299017978439534e-07 4.539578911701694017e-03
7.925000000000000000e+03 7.490960000000000000e+05 5.339769535546846400e-07 -9.828394872146262284e-24 -1.294230869314419999e-18 3.395401832628279917e-06 6.911798065947411196e+00 -2.283743690180332182e-06 4.530794450911508967e-03
7.926000000000000000e+03 7.407720000000000000e+05 5.785470138874424737e-07 3.856980092582948060e-08 -1.394476763882598159e-18 2.937877991077255928e-06 6.912648955714397303e+00 -8.944727507624686833e-07 4.525009044618374943e-03
7.927000000000000000e+03 7.403850000000000000e+05 3.473096526035199343e-07 7.717992280078218409e-08 7.717992279927985205e-08 2.515823434681110417e-06 6.816673378376426840e+00 2.145762289446131999e-06 4.619218379626748895e-03
7.928000000000000000e+03 7.473150000000000000e+05 4.970174175930784276e-07 -1.450343537141427280e-23 1.146963271352458485e-07 3.286852905464719522e-06 6.763741972733208208e+00 -7.355767001738543263e-07 4.538915985896114016e-03
7.929000000000000000e+03 7.389800000000000000e+05 5.026233070293803061e-07 3.866333130995232106e-08 -1.743285257712022150e-18 3.727637784957988706e-06 6.780683324843262305e+00 -3.161952535492721446e-07 4.609055725459421625e-03
7.930000000000000000e+03 7.385550000000000000e+05 5.415981206545214054e-07 -1.236335360897662744e-23 -1.877644451572620363e-18 3.277331013269525991e-06 6.767091729859575189e+00 2.516409279893153518e-06 4.714611640297575006e-03
7.931000000000000000e+03 7.379180000000000000e+05 4.646276996321310170e-07 1.548758998773769968e-07 3.871897496732207716e-08 3.232118847339947157e-06 6.739392086388566128e+00 2.703296098932561305e-06 4.707840166522470754e-03
7.932000000000000000e+03 7.377760000000000000e+05 3.872642722374890067e-07 -6.351234013762722592e-24 3.872642722157127161e-08 3.519900090399946163e-06 6.717034607030950788e+00 -2.218689678465235037e-06 4.537962742078951658e-03
7.933000000000000000e+03 7.371280000000000000e+05 6.976884805430186755e-07 -9.629451108145911365e-24 7.752094228021277724e-08 3.059185685761955188e-06 6.721818976159450010e+00 3.129330902076752534e-06 4.735948166397015331e-03
7.934000000000000000e+03 7.367070000000000000e+05 5.429566978459550667e-07 7.756524254942212214e-08 -2.524685990878873239e-18 2.538892863745872227e-06 6.666634619470167777e+00 1.179794658274069383e-06 4.704719786835242362e-03
7.935000000000000000e+03 7.357100000000000000e+05 6.601980205709936579e-07 7.767035536129337774e-08 -2.718036331696347142e-18 3.152742993747457770e-06 6.702853954992575858e+00 -1.405543354070806729e-07 4.708376942001523888e-03
7.936000000000000000e+03 7.357720000000000000e+05 5.436466731541836894e-07 -1.609401171370172200e-23 -2.925991195852330265e-18 3.026289026994048157e-06 6.700430043885044817e+00 5.150871735996827077e-08 4.633228771956494040e-03
7.937000000000000000e+03 7.425810000000000000e+05 5.001859345021909073e-07 -8.746589949115924484e-24 -3.149546109350099821e-18 3.321244161624083777e-06 6.547195190996199621e+00 -1.006517236944976077e-06 4.600171563775555875e-03
7.938000000000000000e+03 7.343410000000000000e+05 6.225212226238996710e-07 7.781515282798745887e-08 7.781515282459758008e-08 2.698617426751544158e-06 6.576764468154574494e+00 4.936306571495601390e-07 4.631363358439799863e-03
7.939000000000000000e+03 7.336450000000000000e+05 8.178342386304002801e-07 3.894448755382857594e-08 -3.648253409061001204e-18 2.750685870837263239e-06 6.561675390223896009e+00 -4.868704310937406530e-07 4.634394018905649629e-03
7.940000000000000000e+03 7.333120000000000000e+05 4.675460688726529461e-07 -9.790450782496696581e-24 3.896217240212843873e-08 2.195515520363981873e-06 6.529624451791663731e+00 1.273867079869702411e-06 4.682863501483638252e-03
7.941000000000000000e+03 7.327150000000000000e+05 4.679270150838222812e-07 -1.803447461419441684e-25 7.798783584307928229e-08 2.730493467203721235e-06 6.514625831704229597e+00 -1.821349940490127285e-08 4.718069099172233875e-03
7.942000000000000000e+03 7.245910000000000000e+05 4.731733389693535375e-07 3.943111158077946587e-08 3.943111157623426060e-08 2.777425617641026427e-06 6.482542106082553879e+00 -1.123049779660546289e-06 4.554293387580013279e-03
7.943000000000000000e+03 7.318000000000000000e+05 9.760668410572756863e-07 -1.158623235265565886e-23 -4.889915202474495777e-18 2.600629643676956556e-06 6.455918329431296065e+00 3.396164654874667913e-06 4.769062585405966885e-03
7.944000000000000000e+03 7.310480000000000000e+05 7.034910351792415988e-07 7.816567057547126670e-08 -5.260306168823152239e-18 3.535528084042687588e-06 6.448054111222575990e+00 1.190692506332972054e-06 4.767128834221465161e-03
7.945000000000000000e+03 7.306900000000000000e+05 4.301218222306508646e-07 3.910198383915007439e-08 -5.658212527668213614e-18 3.058048017020724140e-06 6.435065892316067959e+00 -1.709914456873180280e-06 4.573759049665412565e-03
7.946000000000000000e+03 7.299610000000000000e+05 6.653975838630909281e-07 3.914103434488767947e-08 -6.085723305047564951e-18 2.679523122749357923e-06 6.373396024933343895e+00 -3.553245780209333786e-07 4.775597600419824451e-03
7.947000000000000000e+03 7.369090000000000000e+05 6.203518441800237621e-07 3.877199026125149175e-08 3.877199025470657404e-08 2.744961482518729131e-06 6.272931900706096187e+00 2.460251082380296808e-06 4.746854767685134216e-03
7.948000000000000000e+03 7.290900000000000000e+05 8.621314632918138265e-07 7.837558757198306912e-08 -7.038176293791196956e-18 2.839806725038931799e-06 6.349602094013089726e+00 1.190638070577182980e-06 4.751128118613630498e-03
7.949000000000000000e+03 7.358190000000000000e+05 8.542473469310096174e-07 -4.742721674893413190e-24 7.765884971343295737e-08 2.414788509566167705e-06 6.213053247794320555e+00 -1.684666609261008588e-06 4.781067083073371055e-03
7.950000000000000000e+03 7.279010000000000000e+05 7.065325013782289911e-07 3.925180563212381445e-08 -8.136856107091120510e-18 3.728241826563596709e-06 6.205590833663393369e+00 -2.319766358552642778e-06 4.686076815391138246e-03
7.951000000000000000e+03 7.347390000000000000e+05 8.943895140217915514e-07 1.701569926044691975e-24 -8.747745419263178820e-18 2.636077576018406052e-06 6.212280013903372478e+00 1.625652594392681233e-07 4.721404471519851168e-03
7.952000000000000000e+03 7.418060000000000000e+05 6.547726571560295927e-07 1.155481159687111132e-07 -9.403700683720616550e-18 2.565771850377302164e-06 6.157986624792660457e+00 -1.996193216161128116e-06 4.609021765798587342e-03
7.953000000000000000e+03 7.410800000000000000e+05 7.325216479423851829e-07 3.262021379464594172e-24 -1.010793726653436037e-17 2.250129029976584113e-06 6.076573114637993989e+00 4.863099589200029545e-07 4.726885086630250830e-03
7.954000000000000000e+03 7.555920000000000000e+05 7.940793444080932512e-07 3.781330211467108829e-08 3.781330210380711650e-08 2.275432423531299552e-06 5.938625655612590926e+00 6.177883435519622435e-07 4.834619741871194754e-03
7.955000000000000000e+03 7.624000000000000000e+05 8.244640983360814992e-07 -1.226111235243137028e-23 3.747564082178272496e-08 2.072217845197629384e-06 5.904830816901159629e+00 -9.616493412435147495e-07 4.678646379853137506e-03
7.956000000000000000e+03 7.617920000000000000e+05 7.876165672519532808e-07 -8.072383628894397144e-24 -1.254659134469972331e-17 2.710293818837022644e-06 5.740909232851906019e+00 -9.391893103948535334e-07 4.679755103755376539e-03
7.957000000000000000e+03 7.613090000000000000e+05 1.313527096093701786e-06 3.752934560267717575e-08 -1.348146387776707906e-17 2.699874060482080867e-06 5.702071136814778285e+00 3.018822644138909365e-06 4.769416885916180973e-03
7.958000000000000000e+03 7.682720000000000000e+05 8.925410345740645254e-07 -2.949015361377200852e-23 -1.448472630286471194e-17 2.153296011606121769e-06 5.694691154581943415e+00 1.546631823237929512e-06 4.734000458171115124e-03
7.959000000000000000e+03 7.676210000000000000e+05 1.228284717141848474e-06 -2.170272594595070176e-23 3.722074898873718385e-08 2.203521756447477227e-06 5.621059323648980310e+00 1.326443250818123390e-06 4.812270638765799372e-03
7.960000000000000000e+03 7.669470000000000000e+05 9.685899323644827617e-07 7.450691787419096436e-08 -1.671631655043010872e-17 2.419561582396689951e-06 5.566984834601232279e+00 7.760585996604234650e-07 4.714797763078912296e-03
7.961000000000000000e+03 7.740470000000000000e+05 9.227937247812009932e-07 -1.284701866697814241e-23 -1.795555079729364953e-17 2.223003854128574458e-06 5.609172855306890249e+00 1.298319917350911415e-06 4.958355241994383093e-03
7.962000000000000000e+03 7.661540000000000000e+05 9.695924616423629691e-07 3.729201775547550441e-08 7.458403549166605385e-08 2.558419009955158146e-06 5.600898352388609780e+00 1.769694131192103012e-06 4.811043210633788279e-03
7.963000000000000000e+03 7.655090000000000000e+05 9.330859784610164961e-07 -5.833494933331705879e-24 7.464687825617038528e-08 2.172845107800450387e-06 5.515618804302679479e+00 -8.997464155409537392e-07 4.681852205526074694e-03
7.964000000000000000e+03 7.649330000000000000e+05 1.008491686760240950e-06 7.470308790816597716e-08 7.470308788592555218e-08 2.504363984629911205e-06 5.544875192958191867e+00 2.924495576173001988e-06 5.003052554929680353e-03
7.965000000000000000e+03 7.645430000000000000e+05 9.342649324965558599e-07 -7.547032463184873117e-24 3.737059727598146420e-08 2.574665634270558156e-06 5.568248808161394336e+00 -1.403553984986519306e-06 4.836876408521157376e-03
7.966000000000000000e+03 7.712000000000000000e+05 1.000296384113811571e-06 6.896910060674864639e-25 3.704801420079763687e-08 2.197611669696147384e-06 5.497726971761256465e+00 1.234768012216230597e-06 4.808091286307145107e-03
7.967000000000000000e+03 7.634440000000000000e+05 1.160156194448166024e-06 -1.721490286459386734e-23 7.484878671106531475e-08 2.905399398070037657e-06 5.467614877649203287e+00 -1.211551742485520171e-06 4.796684498142606869e-03
7.968000000000000000e+03 7.627710000000000000e+05 1.236094637652903410e-06 -8.381887557454243315e-24 -2.954840737466475407e-17 2.041675102265873447e-06 5.414982975375442820e+00 1.108409469579523627e-06 4.912352462272445187e-03
7.969000000000000000e+03 7.623370000000000000e+05 1.086883397462577123e-06 3.747873784353712963e-08 -3.171656374192373756e-17 2.637919629684845332e-06 5.463686983629017391e+00 4.571295545519000808e-07 4.933513656033955072e-03
7.970000000000000000e+03 7.617470000000000000e+05 1.312771825816183079e-06 7.501553290378188947e-08 -3.404081106926844392e-17 2.461909131850761875e-06 5.327555893674444931e+00 2.695421220862498032e-07 4.873009017429617840e-03
7.971000000000000000e+03 7.686120000000000000e+05 9.664917316632356386e-07 -1.840178266383122994e-23 3.717275887359226124e-08 2.767326156186252140e-06 5.325732915109013810e+00 -1.064317141739534668e-06 4.734508438587986361e-03
7.972000000000000000e+03 7.605480000000000000e+05 1.690510376352690228e-06 7.513379450456401071e-08 3.756689721307960664e-08 2.430297764624973293e-06 5.334707366565210940e+00 -1.259853626872220868e-06 4.740003260806813223e-03
7.973000000000000000e+03 7.600020000000000000e+05 1.541349327276206501e-06 -7.913167484711257989e-24 3.759388598906286150e-08 2.036106899693487910e-06 5.375668664242074790e+00 6.252746901497715777e-07 4.911829179396884001e-03
7.974000000000000000e+03 7.594400000000000000e+05 1.429624836345577934e-06 -9.310977674369939367e-24 7.524341239411018282e-08 2.738462561225340990e-06 5.378812192366962286e+00 -2.824814010085999509e-06 4.831191404192647539e-03
7.975000000000000000e+03 7.590270000000000000e+05 1.806824489021565042e-06 2.227286272335840869e-24 1.129265305154311207e-07 2.301504186516098074e-06 5.348162772415126831e+00 6.402135672092196879e-07 4.951075521687661046e-03
7.976000000000000000e+03 7.585720000000000000e+05 1.770243487575527016e-06 3.766475505479845715e-08 3.766475500286114968e-08 2.108729651090788712e-06 5.385800582635666522e+00 9.840385940300335095e-09 4.782670596858215779e-03
7.977000000000000000e+03 7.579040000000000000e+05 1.884897597283334866e-06 -2.642021681363303476e-23 3.769795188995765748e-08 1.915014220941832665e-06 5.390623190483937677e+00 1.502182694671199813e-07 4.995355612320383568e-03
7.978000000000000000e+03 7.574300000000000000e+05 1.169367843515949479e-06 -2.994822486066638497e-23 -5.974939270658647037e-17 2.402637757904436095e-06 5.418442954040878945e+00 -1.266171063728284440e-06 4.830809447737834800e-03
7.979000000000000000e+03 7.569210000000000000e+05 1.849598571052989584e-06 7.549381922665264228e-08 3.774690954924921836e-08 2.152723715656840909e-06 5.358847632240760994e+00 1.473069008632308980e-06 4.980704723478466232e-03
7.980000000000000000e+03 7.489850000000000000e+05 2.059930629928694125e-06 3.814686351719802318e-08 -6.871225264941353414e-17 2.080993879197443794e-06 5.409704585856310644e+00 -4.173523074922543810e-07 4.855904991421685496e-03
7.981000000000000000e+03 7.557640000000000000e+05 1.814625427287580999e-06 -3.037294655537103932e-23 7.560939272997299874e-08 2.356647197291691908e-06 5.315932356461739339e+00 -1.750893635808603414e-06 4.840135280325679086e-03
7.982000000000000000e+03 7.550460000000000000e+05 1.664988434006480562e-06 3.784064622742000917e-08 3.784064614842821790e-08 2.306116803552122230e-06 5.328330556099862392e+00 -2.956284207339808403e-06 4.899039263833001451e-03
7.983000000000000000e+03 7.547260000000000000e+05 1.703551071136128516e-06 -1.931741519438775835e-23 3.785669038500829109e-08 2.033045891518789450e-06 5.349913203687585828e+00 -2.028080298491842818e-06 4.860041922499139418e-03
7.984000000000000000e+03 7.543830000000000000e+05 1.893695150303531033e-06 7.574780601214123338e-08 7.574780592136403744e-08 2.025404890910532752e-06 5.395791815713930184e+00 -2.609728606454515744e-06 4.826460829578563261e-03
7.985000000000000000e+03 7.537570000000000000e+05 2.046889306311109488e-06 3.637366016191695851e-25 7.581071495125872139e-08 2.178390603480781066e-06 5.286854449144591683e+00 1.149731080158060013e-06 5.014878800462284521e-03
7.986000000000000000e+03 7.531740000000000000e+05 2.427820700889075417e-06 2.957352641516967639e-24 3.793469834710759508e-08 1.925583901473560640e-06 5.276690101855352033e+00 9.316739170043495657e-07 5.022743748456426696e-03
7.987000000000000000e+03 7.528290000000000000e+05 2.390981218842526214e-06 7.590416567754050862e-08 -1.117588910666554315e-16 2.033112479328648484e-06 5.197850840134312200e+00 -3.436986654690395756e-06 4.878930009337973175e-03
